Temperature (C), Heat Flow Endo Up (mW)
-9.970, 0.0025
-9.970, 0.0025
-9.980, 0.0000
-9.990, 0.0063
-9.990, 0.0057
-10.000, -0.0006
-10.010, 0.0000
-10.010, -0.0013
-10.020, -0.0044
-10.030, 0.0019
-10.030, -0.0006
-10.040, 0.0032
-10.040, 0.0019
-10.040, 0.0013
-10.050, 0.0044
-10.050, 0.0000
-10.050, 0.0025
-10.050, 0.0032
-10.050, 0.0006
-10.050, 0.0057
-10.050, 0.0050
-10.050, 0.0069
-10.050, 0.0095
-10.050, 0.0107
-10.050, 0.0145
-10.041, 0.0195
-10.041, 0.0258
-10.031, 0.0315
-10.031, 0.0365
-10.031, 0.0359
-10.021, 0.0410
-10.021, 0.0554
-10.021, 0.0498
-10.011, 0.0586
-10.011, 0.0674
-10.011, 0.0636
-10.001, 0.0750
-10.001, 0.0775
-10.001, 0.0838
-10.001, 0.0882
-9.991, 0.0914
-9.991, 0.0983
-9.991, 0.1014
-9.991, 0.1109
-9.991, 0.1115
-9.991, 0.1153
-9.991, 0.1159
-9.991, 0.1197
-9.991, 0.1260
-9.991, 0.1260
-9.991, 0.1260
-9.991, 0.1279
-9.991, 0.1254
-9.991, 0.1229
-9.991, 0.1298
-9.991, 0.1273
-9.991, 0.1222
-9.991, 0.1197
-9.991, 0.1184
-9.991, 0.1235
-10.001, 0.1203
-9.392, 0.1184
-8.866, 0.0888
-8.413, 0.0567
-8.026, 0.0749
-7.696, 0.1403
-7.416, 0.2585
-7.179, 0.4176
-6.979, 0.6041
-6.811, 0.8220
-6.668, 1.0303
-6.545, 1.2567
-6.440, 1.4710
-6.347, 1.6696
-6.264, 1.8586
-6.187, 2.0249
-6.115, 2.1567
-6.046, 2.2639
-5.978, 2.3486
-5.910, 2.4100
-5.261, 2.4488
-4.931, 2.4813
-4.612, 2.4945
-4.282, 2.5051
-3.952, 2.5075
-3.622, 2.5100
-3.292, 2.5106
-2.962, 2.5124
-2.632, 2.5173
-2.322, 2.5273
-1.972, 2.5291
-1.632, 2.5372
-1.302, 2.5471
-0.972, 2.5583
-0.632, 2.5639
-0.302, 2.5719
0.038, 2.5875
0.368, 2.5937
0.698, 2.6092
1.038, 2.6203
1.368, 2.6253
1.697, 2.6383
2.027, 2.6513
2.367, 2.6600
2.697, 2.6699
3.037, 2.6823
3.367, 2.6922
3.697, 2.6977
4.037, 2.7182
4.367, 2.7175
4.697, 2.7311
5.037, 2.7403
5.367, 2.7471
5.697, 2.7644
6.036, 2.7730
6.366, 2.7823
6.706, 2.7928
7.036, 2.8014
7.366, 2.8162
7.706, 2.8248
8.036, 2.8353
8.366, 2.8377
8.706, 2.8494
9.036, 2.8679
9.366, 2.8827
9.696, 2.8882
10.036, 2.8931
10.366, 2.9023
10.705, 2.9189
11.035, 2.9269
11.365, 2.9354
11.705, 2.9483
12.035, 2.9619
12.365, 2.9692
12.705, 2.9864
13.035, 2.9919
13.365, 3.0048
13.705, 3.0171
14.035, 3.0269
14.365, 3.0416
14.705, 3.0458
15.034, 3.0612
15.364, 3.0765
15.704, 3.0869
16.034, 3.1053
16.374, 3.1120
16.704, 3.1254
17.034, 3.1352
17.374, 3.1450
17.694, 3.1560
18.034, 3.1780
18.374, 3.1872
18.703, 3.1988
19.033, 3.2178
19.373, 3.2312
19.703, 3.2520
20.033, 3.2648
20.373, 3.2789
20.703, 3.2960
21.033, 3.3174
21.363, 3.3308
21.702, 3.3503
22.032, 3.3711
22.362, 3.3882
22.702, 3.4065
23.032, 3.4358
23.362, 3.4566
23.701, 3.4761
24.031, 3.5030
24.371, 3.5249
24.701, 3.5481
25.031, 3.5823
25.361, 3.6061
25.700, 3.6329
26.030, 3.6658
26.370, 3.6969
26.700, 3.7255
27.030, 3.7493
27.369, 3.7809
27.699, 3.8157
28.029, 3.8412
28.369, 3.8777
28.698, 3.9045
29.028, 3.9404
29.368, 3.9659
29.698, 3.9999
30.028, 4.0205
30.367, 4.0399
30.697, 4.0678
31.027, 4.0823
31.367, 4.1046
31.697, 4.1167
32.027, 4.1256
32.367, 4.1346
32.697, 4.1454
33.037, 4.1519
33.367, 4.1541
33.697, 4.1637
34.037, 4.1617
34.367, 4.1645
34.697, 4.1650
35.027, 4.1697
35.367, 4.1634
35.677, 4.1620
36.027, 4.1606
36.367, 4.1647
36.697, 4.1602
37.027, 4.1643
37.367, 4.1684
37.677, 4.1695
38.027, 4.1657
38.366, 4.1789
38.696, 4.1812
39.026, 4.1853
39.366, 4.1887
39.696, 4.1904
40.036, 4.1969
40.366, 4.2089
40.696, 4.2112
41.026, 4.2178
41.366, 4.2170
41.696, 4.2181
42.026, 4.2271
42.366, 4.2312
42.696, 4.2353
43.036, 4.2382
43.366, 4.2471
43.696, 4.2464
44.026, 4.2554
44.366, 4.2613
44.696, 4.2715
45.036, 4.2768
45.366, 4.2864
45.696, 4.2857
46.036, 4.2970
46.366, 4.3042
46.695, 4.3162
47.025, 4.3222
47.365, 4.3250
47.695, 4.3298
48.035, 4.3393
48.417, 4.3371
48.741, 4.3940
49.012, 4.3765
49.236, 4.2537
49.421, 4.0250
49.569, 3.7314
49.687, 3.4082
49.779, 3.0844
49.849, 2.7709
49.901, 2.4828
49.939, 2.2177
49.964, 1.9901
49.981, 1.7825
49.991, 1.6087
49.997, 1.4677
50.000, 1.3424
50.001, 1.2371
50.001, 1.1548
50.001, 1.0858
50.002, 1.0240
50.003, 0.9756
50.003, 0.9290
50.003, 0.8951
50.003, 0.8697
50.004, 0.8479
50.004, 0.8249
50.004, 0.8031
50.004, 0.7891
50.004, 0.7807
50.004, 0.7686
