Temperature (C), Heat Flow Endo Up (mW)
-9.961, 0.0032
-9.971, 0.0032
-9.971, -0.0038
-9.981, 0.0025
-9.981, -0.0031
-9.991, 0.0038
-9.991, 0.0088
-10.001, -0.0076
-10.001, 0.0032
-10.011, 0.0019
-10.011, 0.0025
-10.021, -0.0019
-10.021, -0.0006
-10.031, 0.0095
-10.031, 0.0000
-10.041, 0.0006
-10.041, 0.0069
-10.041, 0.0006
-10.041, 0.0019
-10.041, 0.0000
-10.051, -0.0031
-10.051, 0.0006
-10.041, 0.0000
-10.041, -0.0019
-10.041, 0.0006
-10.041, 0.0019
-10.041, 0.0025
-10.031, -0.0057
-10.041, 0.0076
-10.031, 0.0006
-10.031, 0.0076
-10.021, 0.0113
-10.021, 0.0126
-10.021, 0.0057
-10.021, 0.0189
-10.011, 0.0170
-10.011, 0.0151
-10.011, 0.0189
-10.001, 0.0189
-10.001, 0.0252
-10.001, 0.0271
-10.001, 0.0277
-9.991, 0.0315
-10.001, 0.0290
-9.991, 0.0334
-9.991, 0.0328
-9.991, 0.0384
-9.991, 0.0410
-9.991, 0.0441
-9.991, 0.0359
-9.991, 0.0410
-9.991, 0.0491
-9.991, 0.0441
-9.991, 0.0416
-9.991, 0.0491
-9.991, 0.0485
-9.991, 0.0466
-9.991, 0.0479
-9.991, 0.0466
-9.991, 0.0391
-9.388, 0.0403
-8.867, 0.0151
-8.418, -0.0290
-8.033, -0.0605
-7.705, -0.0574
-7.427, -0.0272
-7.191, 0.0332
-6.992, 0.1174
-6.823, 0.2129
-6.680, 0.3196
-6.557, 0.4438
-6.451, 0.5504
-6.357, 0.6676
-6.273, 0.7709
-6.195, 0.8553
-6.122, 0.9460
-6.051, 1.0103
-5.981, 1.0545
-5.912, 1.0956
-5.272, 1.1191
-4.942, 1.1275
-4.612, 1.1366
-4.282, 1.1457
-3.962, 1.1516
-3.632, 1.1506
-3.302, 1.1503
-2.972, 1.1506
-2.632, 1.1509
-2.302, 1.1512
-1.972, 1.1552
-1.642, 1.1574
-1.302, 1.1652
-0.972, 1.1661
-0.642, 1.1777
-0.312, 1.1811
0.027, 1.1857
0.357, 1.1910
0.697, 1.2057
1.027, 1.2047
1.357, 1.2125
1.697, 1.2177
2.027, 1.2286
2.357, 1.2345
2.697, 1.2385
3.027, 1.2432
3.357, 1.2534
3.697, 1.2562
4.027, 1.2670
4.367, 1.2673
4.697, 1.2738
5.027, 1.2847
5.357, 1.2874
5.697, 1.3020
6.027, 1.3048
6.367, 1.3150
6.697, 1.3165
7.027, 1.3230
7.366, 1.3288
7.696, 1.3384
8.026, 1.3474
8.366, 1.3514
8.676, 1.3572
9.026, 1.3686
9.366, 1.3720
9.696, 1.3847
10.026, 1.3849
10.366, 1.3920
10.696, 1.3997
11.026, 1.4086
11.366, 1.4163
11.696, 1.4283
12.026, 1.4391
12.346, 1.4412
12.696, 1.4532
13.026, 1.4584
13.365, 1.4704
13.695, 1.4812
14.025, 1.4839
14.365, 1.5008
14.695, 1.5134
15.035, 1.5192
15.365, 1.5349
15.695, 1.5450
16.035, 1.5607
16.365, 1.5732
16.695, 1.5908
17.025, 1.5972
17.364, 1.6116
17.694, 1.6254
18.024, 1.6398
18.364, 1.6535
18.694, 1.6679
19.034, 1.6878
19.364, 1.7065
19.694, 1.7197
20.024, 1.7359
20.343, 1.7552
20.693, 1.7695
21.013, 1.7974
21.363, 1.8099
21.693, 1.8365
22.033, 1.8496
22.363, 1.8737
22.692, 1.8862
23.032, 1.9159
23.362, 1.9339
23.692, 1.9506
24.032, 1.9655
24.362, 1.9860
24.692, 2.0015
25.032, 2.0164
25.361, 2.0276
25.691, 2.0424
26.031, 2.0543
26.361, 2.0563
26.691, 2.0687
27.031, 2.0725
27.361, 2.0886
27.691, 2.0802
28.031, 2.0822
28.361, 2.0891
28.691, 2.0850
29.031, 2.0919
29.361, 2.0909
29.691, 2.0929
30.031, 2.0986
30.361, 2.0981
30.691, 2.0959
31.031, 2.0991
31.361, 2.0944
31.701, 2.0982
32.031, 2.0972
32.361, 2.0980
32.691, 2.0976
33.031, 2.0984
33.361, 2.1028
33.691, 2.1018
34.021, 2.1050
34.361, 2.1046
34.701, 2.1109
35.031, 2.1062
35.361, 2.1168
35.691, 2.1170
36.031, 2.1245
36.361, 2.1308
36.701, 2.1297
37.021, 2.1348
37.361, 2.1411
37.691, 2.1401
38.031, 2.1397
38.361, 2.1496
38.701, 2.1480
39.031, 2.1524
39.361, 2.1563
39.691, 2.1595
40.030, 2.1676
40.360, 2.1739
40.690, 2.1753
41.030, 2.1792
41.360, 2.1873
41.690, 2.1875
42.030, 2.1992
42.360, 2.2019
42.690, 2.2130
43.030, 2.2108
43.360, 2.2164
43.690, 2.2191
44.030, 2.2278
44.350, 2.2323
44.690, 2.2355
45.030, 2.2387
45.360, 2.2505
45.700, 2.2519
46.030, 2.2594
46.360, 2.2699
46.700, 2.2689
47.030, 2.2776
47.370, 2.2790
47.700, 2.2877
48.030, 2.2939
48.413, 2.2925
48.738, 2.3452
49.011, 2.4009
49.237, 2.3658
49.422, 2.2672
49.571, 2.1171
49.690, 1.9391
49.782, 1.7563
49.852, 1.5814
49.904, 1.4131
49.942, 1.2600
49.968, 1.1329
49.984, 1.0143
49.995, 0.9198
50.000, 0.8387
50.003, 0.7727
50.004, 0.7207
50.004, 0.6741
50.004, 0.6384
50.005, 0.6135
50.005, 0.5863
50.005, 0.5712
50.005, 0.5494
50.005, 0.5379
50.006, 0.5270
50.006, 0.5191
50.006, 0.5161
50.006, 0.5058
50.006, 0.4943
50.006, 0.4955
